# total number of loops: 10
# number of segments per loop: 45
# radius: 10.0

# index    x               y               z 
0         -2.06355264225316e+01      4.49734567528534e+01      3.92850862566075e+00
1         -2.10747848419607e+01      4.54085190456363e+01      5.17917208720629e+00
2         -2.16703002307165e+01      4.57317846566531e+01      6.39869946212450e+00
3         -2.24104815591456e+01      4.59369615884945e+01      7.56335403725444e+00
4         -2.32809220396338e+01      4.60200563055676e+01      8.65046713606613e+00
5         -2.42646795383398e+01      4.59794514637234e+01      9.63887933866403e+00
6         -2.53426063345589e+01      4.58159373900210e+01      1.05093523258268e+01
7         -2.64937218093262e+01      4.55326966999106e+01      1.12449433310076e+01
8         -2.76956208092998e+01      4.51352423512437e+01      1.18313349120131e+01
9         -2.89249097375851e+01      4.46313103408195e+01      1.22571136237294e+01
10        -3.01576618834885e+01      4.40307091320066e+01      1.25139921678492e+01
11        -3.13698831287247e+01      4.33451287441608e+01      1.25969706957061e+01
12        -3.25379789656364e+01      4.25879132196956e+01      1.25044341246420e+01
13        -3.36392137374474e+01      4.17738008974746e+01      1.22381835737541e+01
14        -3.46521531619605e+01      4.09186375478109e+01      1.18034013071597e+01
15        -3.55570815254791e+01      4.00390679525718e+01      1.12085498671206e+01
16        -3.63363854267479e+01      3.91522119334331e+01      1.04652073602838e+01
17        -3.69748966017738e+01      3.82753311340234e+01      9.58784210300515e+00
18        -3.74601871568307e+01      3.74254930416662e+01      8.59353101202950e+00
19        -3.77828114632742e+01      3.66192387881527e+01      7.50162722173055e+00
20        -3.79364900059591e+01      3.58722611954270e+01      6.33338339736432e+00
21        -3.79182316068587e+01      3.51990993326569e+01      5.11153807611445e+00
22        -3.77283916449430e+01      3.46128555297912e+01      3.85987308733061e+00
23        -3.73706651391309e+01      3.41249403556100e+01      2.60275066627165e+00
24        -3.68520148289501e+01      3.37448505239836e+01      1.36463927090792e+00
25        -3.61825356527323e+01      3.34799840511388e+01      1.69637331219358e-01
26        -3.53752582611213e+01      3.33354962616884e+01     -9.58995799332577e-01
27        -3.44458953902805e+01      3.33141994461015e+01     -1.99929256066284e+00
28        -3.34125360313560e+01      3.34165081226689e+01     -2.93100475963218e+00
29        -3.22952933488407e+01      3.36404309693755e+01     -3.73599767809456e+00
30        -3.11159132007048e+01      3.39816095827187e+01     -4.39860304455798e+00
31        -2.98973508800068e+01      3.44334033090746e+01     -4.90592399926668e+00
32        -2.86633243162250e+01      3.49870184974675e+01     -5.24808611690628e+00
33        -2.74378524327391e+01      3.56316796579833e+01     -5.41842960106056e+00
34        -2.62447876458074e+01      3.63548391944237e+01     -5.41363890957331e+00
35        -2.51073516044165e+01      3.71424216289936e+01     -5.23380728780498e+00
36        -2.40476832072978e+01      3.79790975654660e+01     -4.88243495371788e+00
37        -2.30864076944462e+01      3.88485820584422e+01     -4.36636097011488e+00
38        -2.22422352002847e+01      3.97339515812902e+01     -3.69563013006137e+00
39        -2.15315965821802e+01      4.06179734233409e+01     -2.88329744641398e+00
40        -2.09683236124947e+01      4.14834411049986e+01     -1.94517405084516e+00
41        -2.05633797588694e+01      4.23135092822948e+01     -8.99519448150111e-01
42        -2.03246467927986e+01      4.30920216223469e+01      2.33313884244186e-01
43        -2.02567713799119e+01      4.38038252680005e+01      1.43127663410149e+00
44        -2.03610746379142e+01      4.44350657709575e+01      2.67105181915826e+00
45         2.15465992150523e+01     -3.50142799159632e+01     -3.02530389230259e+01
46         2.20443747843589e+01     -3.41594535827603e+01     -3.12368466656008e+01
47         2.24952257847542e+01     -3.34449724316974e+01     -3.23470882212563e+01
48         2.28903769143511e+01     -3.28847430256698e+01     -3.35621540009927e+01
49         2.32221370058896e+01     -3.24896695928143e+01     -3.48583941315240e+01
50         2.34840487265596e+01     -3.22674417881119e+01     -3.62105787731610e+01
51         2.36710142626383e+01     -3.22223850230010e+01     -3.75923891899413e+01
52         2.37793945426360e+01     -3.23553762761630e+01     -3.89769300138883e+01
53         2.38070800676835e+01     -3.26638270241304e+01     -4.03372527327558e+01
54         2.37535319705273e+01     -3.31417336239516e+01     -4.16468802121652e+01
55         2.36197925039687e+01     -3.37797941672718e+01     -4.28803220429090e+01
56         2.34084647545979e+01     -3.45655895313984e+01     -4.40135706827709e+01
57         2.31236619766744e+01     -3.54838251033975e+01     -4.50245687360274e+01
58         2.27709275323124e+01     -3.65166284723378e+01     -4.58936382755650e+01
59         2.23571269962418e+01     -3.76438972954392e+01     -4.66038638513486e+01
60         2.18903145252060e+01     -3.88436905673094e+01     -4.71414217304152e+01
61         2.13795760929625e+01     -4.00926556766560e+01     -4.74958489601117e+01
62         2.08348526421386e+01     -4.13664829383022e+01     -4.76602470175671e+01
63         2.02667465950908e+01     -4.26403787535573e+01     -4.76314160815931e+01
64         1.96863154898137e+01     -4.38895481894123e+01     -4.74099173135637e+01
65         1.91048567575412e+01     -4.50896775837075e+01     -4.70000619350475e+01
66         1.85336878310972e+01     -4.62174077829098e+01     -4.64098273147837e+01
67         1.79839258639401e+01     -4.72507888014658e+01     -4.56507016982738e+01
68         1.74662713474156e+01     -4.81697070533029e+01     -4.47374606021505e+01
69         1.69907998378645e+01     -4.89562768399031e+01     -4.36878792255537e+01
70         1.65667658473794e+01     -4.95951884750800e+01     -4.25223864760976e+01
71         1.62024227152537e+01     -5.00740062706062e+01     -4.12636673444220e+01
72         1.59048619661199e+01     -5.03834105827389e+01     -3.99362213666532e+01
73         1.56798752814896e+01     -5.05173792084846e+01     -3.85658857688010e+01
74         1.55318417712606e+01     -5.04733046009303e+01     -3.71793325745441e+01
75         1.54636427393239e+01     -5.02520446221778e+01     -3.58035494646277e+01
76         1.54766056022608e+01     -4.98579058460341e+01     -3.44653144923562e+01
77         1.55704780526894e+01     -4.92985597354507e+01     -3.31906748792452e+01
78         1.57434329701404e+01     -4.85848933262232e+01     -3.20044400354829e+01
79         1.59921039838788e+01     -4.77307973232237e+01     -3.09296986729810e+01
80         1.63116509954815e+01     -4.67528957336309e+01     -2.99873694098602e+01
81         1.66958543858467e+01     -4.56702222995396e+01     -2.91957936133438e+01
82         1.71372360730061e+01     -4.45038500278216e+01     -2.85703784059067e+01
83         1.76272050644832e+01     -4.32764810280170e+01     -2.81232967831624e+01
84         1.81562246711904e+01     -4.20120046415957e+01     -2.78632506803498e+01
85         1.87139981282340e+01     -4.07350324630985e+01     -2.77953015990622e+01
86         1.92896690097307e+01     -3.94704193034458e+01     -2.79207720908758e+01
87         1.98720325367879e+01     -3.82427794193139e+01     -2.82372200153881e+01
88         2.04497536657802e+01     -3.70760074246279e+01     -2.87384860737027e+01
89         2.10115877120799e+01     -3.59928132090809e+01     -2.94148136921760e+01
90        -3.43484998623249e+00     -2.68420417667573e+01     -2.91856050056363e+01
91        -3.36655109608051e+00     -2.57393980507164e+01     -3.00376016891777e+01
92        -3.45652690078915e+00     -2.47105453426322e+01     -3.09755530265725e+01
93        -3.70302612366572e+00     -2.37755090901647e+01     -3.19812028619421e+01
94        -4.10125093772563e+00     -2.29524887103805e+01     -3.30349773651507e+01
95        -4.64345034993723e+00     -2.22575033588000e+01     -3.41163660141442e+01
96        -5.31907106548449e+00     -2.17040801347578e+01     -3.52043208089312e+01
97        -6.11496289564647e+00     -2.13029907918002e+01     -3.62776659469615e+01
98        -7.01563471126261e+00     -2.10620420777555e+01     -3.73155099860352e+01
99        -8.00355595994094e+00     -2.09859237852676e+01     -3.82976524724620e+01
100       -9.05949787831970e+00     -2.10761174703163e+01     -3.92049771199139e+01
101       -1.01629077580738e+01     -2.13308676154161e+01     -4.00198238861950e+01
102       -1.12923089810039e+01     -2.17452157987665e+01     -4.07263327058739e+01
103       -1.24257190369806e+01     -2.23110972042927e+01     -4.13107521884175e+01
104       -1.35410773884990e+01     -2.30174975941168e+01     -4.17617072733654e+01
105       -1.46166748539483e+01     -2.38506676881692e+01     -4.20704206329428e+01
106       -1.56315761521375e+01     -2.47943907782863e+01     -4.22308835127620e+01
107       -1.65660273837303e+01     -2.58302983679880e+01     -4.22399726853909e+01
108       -1.74018405184263e+01     -2.69382276943682e+01     -4.20975112404231e+01
109       -1.81227474042822e+01     -2.80966141733397e+01     -4.18062720278375e+01
110       -1.87147164087840e+01     -2.92829111297346e+01     -4.13719236876273e+01
111       -1.91662255286139e+01     -3.04740286426893e+01     -4.08029203161709e+01
112       -1.94684866523385e+01     -3.16467829646904e+01     -4.01103369168618e+01
113       -1.96156166110014e+01     -3.27783477668483e+01     -3.93076538377657e+01
114       -1.96047516873150e+01     -3.38466984274249e+01     -3.84104943919788e+01
115       -1.94361033546603e+01     -3.48310407160429e+01     -3.74363207676094e+01
116       -1.91129541609977e+01     -3.57122155297272e+01     -3.64040941461499e+01
117       -1.86415938378052e+01     -3.64730718030509e+01     -3.53339056446467e+01
118       -1.80311968776091e+01     -3.70988003341149e+01     -3.42465852649601e+01
119       -1.72936439629236e+01     -3.75772220288177e+01     -3.31632964614720e+01
120       -1.64432907222790e+01     -3.78990249530686e+01     -3.21051242185198e+01
121       -1.54966883142418e+01     -3.80579455789923e+01     -3.10926646551592e+01
122       -1.44722612779404e+01     -3.80508906973749e+01     -3.01456241451355e+01
123       -1.33899489203677e+01     -3.78779976234622e+01     -2.92824357547337e+01
124       -1.22708172204520e+01     -3.75426315242749e+01     -2.85199004641107e+01
125       -1.11366488037386e+01     -3.70513199194605e+01     -2.78728601553273e+01
126       -1.00095189683614e+01     -3.64136256305479e+01     -2.73539087319968e+01
127       -8.91136601447481e+00     -3.56419606515045e+01     -2.69731469932756e+01
128       -7.86356424019579e+00     -3.47513445633912e+01     -2.67379860332979e+01
129       -6.88650791520383e+00     -3.37591121953026e+01     -2.66530029926582e+01
130       -5.99921432947979e+00     -3.26845762216359e+01     -2.67198519695756e+01
131       -5.21895364338829e+00     -3.15486512628518e+01     -2.69372318247540e+01
132       -4.56091274365073e+00     -3.03734468061777e+01     -2.73009115065783e+01
133       -4.03789964787007e+00     -2.91818368695874e+01     -2.78038124037213e+01
134       -3.66009421103712e+00     -2.79970147850606e+01     -2.84361461222615e+01
135       -4.56964045904020e+00     -1.62908908605548e+00      1.66710803072263e+01
136       -4.13612271462625e+00     -2.83568493131761e+00      1.72211485604098e+01
137       -3.81680725417573e+00     -4.12793178623948e+00      1.76389068090989e+01
138       -3.61790918991036e+00     -5.48067753569905e+00      1.79162238641757e+01
139       -3.54329984640787e+00     -6.86759252240858e+00      1.80477020646067e+01
140       -3.59443140967266e+00     -8.26168202374418e+00      1.80307823367748e+01
141       -3.77030866198707e+00     -9.63581167331565e+00      1.78657940039362e+01
142       -4.06750835269222e+00     -1.09632356005434e+01      1.75559483763182e+01
143       -4.48024582786816e+00     -1.22181170086063e+01      1.71072762466183e+01
144       -5.00048762204252e+00     -1.33760310583028e+01      1.65285105074840e+01
145       -5.61810782045796e+00     -1.44144402697632e+01      1.58309161756914e+01
146       -6.32108514848488e+00     -1.53131331888596e+01      1.50280711314069e+01
147       -7.09573695205811e+00     -1.60546177801697e+01      1.41356018401950e+01
148       -7.92698551497446e+00     -1.66244618895499e+01      1.31708792016401e+01
149       -8.79865152948798e+00     -1.70115741495992e+01      1.21526804445462e+01
150       -9.69376900813156e+00     -1.72084198605093e+01      1.11008236495361e+01
151       -1.05949155073645e+01     -1.72111676444262e+01      1.00357820126553e+01
152       -1.14845512356180e+01     -1.70197640188613e+01      8.97828535789874e+00
153       -1.23453604453875e+01     -1.66379344376680e+01      7.94891665476670e+00
154       -1.31605884645607e+01     -1.60731107793194e+01      6.96771139417607e+00
155       -1.39143678070524e+01     -1.53362866938480e+01      6.05376762041982e+00
156       -1.45920270153724e+01     -1.44418036239524e+01      5.22487420945848e+00
157       -1.51803762238567e+01     -1.34070716651287e+01      4.49716462868412e+00
158       -1.56679638843994e+01     -1.22522306979653e+01      3.88480291732915e+00
159       -1.60452996578109e+01     -1.09997583882760e+01      3.39970799955395e+00
160       -1.63050391324746e+01     -9.67403268490257e+00      3.05132169614575e+00
161       -1.64421267749657e+01     -8.30085733067066e+00      2.84642495021682e+00
162       -1.64538943302578e+01     -6.90695962188656e+00      2.78900584386009e+00
163       -1.63401127562726e+01     -5.51947019191659e+00      2.88018197466752e+00
164       -1.61029966819231e+01     -4.16539494426930e+00      3.11817870296426e+00
165       -1.57471613018810e+01     -2.87108941340238e+00      3.49836369315127e+00
166       -1.52795325470621e+01     -1.66174578422341e+00      4.01333707684859e+00
167       -1.47092122792590e+01     -5.60902554866385e-01      4.65307548291609e+00
168       -1.40473011337549e+01      4.10013613399872e-01      5.40512713097130e+00
169       -1.33066824580843e+01      1.23210494176083e+00      6.25485419113092e+00
170       -1.25017715523277e+01      1.88937035762497e+00      7.18571769271913e+00
171       -1.16482350916933e+01      2.36901693730084e+00      8.17959943651907e+00
172       -1.07626861925038e+01      2.66170890570492e+00      9.21715464491140e+00
173       -9.86236105678517e+00      2.76174934660443e+00      1.02781884859663e+01
174       -8.96478348919939e+00      2.66719108661156e+00      1.13420491428758e+01
175       -8.08742381612018e+00      2.37987459469865e+00      1.23880297780766e+01
176       -7.24735884560222e+00      1.90539215956313e+00      1.33957715682900e+01
177       -6.46093948673688e+00      1.25297904208912e+00      1.43456599658587e+01
178       -5.74347249780572e+00      4.35333721499339e-01      1.52192064736060e+01
179       -5.10892255764168e+00     -5.31629266098687e-01      1.59994085024032e+01
180        4.82686166473271e+01      4.54931847123288e+01      4.29720195045186e+01
181        4.74984571307215e+01      4.64061183701803e+01      4.36929860134701e+01
182        4.65743677760132e+01      4.72170988006196e+01      4.43523462015654e+01
183        4.55143349313555e+01      4.79103411920450e+01      4.49372663727544e+01
184        4.43389909303001e+01      4.84723523698587e+01      4.54363617212416e+01
185        4.30712125068937e+01      4.88921934257629e+01      4.58399179237813e+01
186        4.17356755260712e+01      4.91616926311666e+01      4.61400802179294e+01
187        4.03583746960136e+01      4.92756044905873e+01      4.63310062860599e+01
188        3.89661176107214e+01      4.92317118392543e+01      4.64089799694318e+01
189        3.75860029706909e+01      4.90308689976986e+01      4.63724835989921e+01
190        3.62448931375332e+01      4.86769851433757e+01      4.62222275350773e+01
191        3.49688912886608e+01      4.81769482229732e+01      4.59611363410578e+01
192        3.37828333486314e+01      4.75404908863630e+01      4.55942918600384e+01
193        3.27098045861269e+01      4.67800010516428e+01      4.51288343025626e+01
194        3.17706902854573e+01      4.59102807884011e+01      4.45738232705367e+01
195        3.09837692382583e+01      4.49482582122698e+01      4.39400614223833e+01
196        3.03643579676044e+01      4.39126579984087e+01      4.32398842115833e+01
197        2.99245126093088e+01      4.28236369270029e+01      4.24869197911051e+01
198        2.96727942529542e+01      4.17023915544642e+01      4.16958237569091e+01
199        2.96141023100216e+01      4.05707456465714e+01      4.08819938934425e+01
200        2.97495791524190e+01      3.94507254036934e+01      4.00612704732798e+01
201        3.00765878775119e+01      3.83641307458538e+01      3.92496279442355e+01
202        3.05887636324333e+01      3.73321110020842e+01      3.84628640049078e+01
203        3.12761374987048e+01      3.63747532627921e+01      3.77162921204450e+01
204        3.21253305258957e+01      3.55106914073945e+01      3.70244434633651e+01
205        3.31198141376744e+01      3.47567434170510e+01      3.64007840808121e+01
206        3.42402318417460e+01      3.41275840317904e+01      3.58574527932653e+01
207        3.54647759819571e+01      3.36354591233887e+01      3.54050249262066e+01
208        3.67696121995167e+01      3.32899473434040e+01      3.50523064734394e+01
209        3.81293433416793e+01      3.30977736856201e+01      3.48061626984353e+01
210        3.95175037884338e+01      3.30626785916913e+01      3.46713845097904e+01
211        4.09070745756933e+01      3.31853451477009e+01      3.46505952116389e+01
212        4.22710092886972e+01      3.34633857886673e+01      3.47441994440217e+01
213        4.35827604897095e+01      3.38913887697807e+01      3.49503753070288e+01
214        4.48167964336975e+01      3.44610234998598e+01      3.52651098220083e+01
215        4.59490980147064e+01      3.51612026868335e+01      3.56822770396312e+01
216        4.69576262704360e+01      3.59782981392695e+01      3.61937572745274e+01
217        4.78227513455723e+01      3.68964060236184e+01      3.67895951457246e+01
218        4.85276345645930e+01      3.78976564142435e+01      3.74581933468155e+01
219        4.90585561774326e+01      3.89625611111967e+01      3.81865383743351e+01
220        4.94051823988116e+01      4.00703929558632e+01      3.89604538208029e+01
221        4.95607665436124e+01      4.11995892615263e+01      3.97648763023692e+01
222        4.95222803434306e+01      4.23281715065382e+01      4.05841486504473e+01
223        4.92904728883755e+01      4.34341731212430e+01      4.14023246606903e+01
224        4.88698560468826e+01      4.44960670422686e+01      4.22034794677204e+01
225        5.19967474510007e+00      2.42084356836386e+01     -4.57924859559946e+01
226        6.01646456319808e+00      2.33586081385659e+01     -4.50461389935348e+01
227        6.73868029236912e+00      2.23630683725931e+01     -4.43875865912229e+01
228        7.35226482495309e+00      2.12411934348554e+01     -4.38296467224775e+01
229        7.84527543596531e+00      2.00148193449019e+01     -4.33831790521967e+01
230        8.20811623465369e+00      1.87078160794137e+01     -4.30568735657330e+01
231        8.43372493759704e+00      1.73456229702594e+01     -4.28570814282134e+01
232        8.51771032801867e+00      1.59547535568369e+01     -4.27876913663346e+01
233        8.45843772582600e+00      1.45622795301881e+01     -4.28500539787209e+01
234        8.25706080479910e+00      1.31953038133259e+01     -4.30429554480588e+01
235        7.91749913764292e+00      1.18804330336672e+01     -4.33626411666697e+01
